# Z, sigma, counts
1.000000000000000056e-01 1.393654297000000042e+03 6.902676999999999730e+00
1.000000000000000056e-01 1.392537109000000100e+03 4.601784000000000319e+00
1.000000000000000056e-01 1.391419922000000042e+03 4.600977000000000317e+00
1.000000000000000056e-01 1.390302734000000100e+03 4.600169000000000175e+00
1.000000000000000056e-01 1.389185547000000042e+03 4.599361000000000033e+00
1.000000000000000056e-01 1.388068359000000100e+03 4.598554000000000030e+00
1.000000000000000056e-01 1.386949219000000085e+03 2.298872999999999944e+00
1.000000000000000056e-01 1.385832030999999915e+03 0.000000000000000000e+00
1.000000000000000056e-01 1.384712890999999900e+03 -2.298064000000000107e+00
1.000000000000000056e-01 1.383595702999999958e+03 0.000000000000000000e+00
1.000000000000000056e-01 1.382476562999999942e+03 4.594510999999999790e+00
1.000000000000000056e-01 1.381357422000000042e+03 9.187404000000000792e+00
1.000000000000000056e-01 1.380238280999999915e+03 4.592893000000000114e+00
1.000000000000000056e-01 1.379119140999999900e+03 0.000000000000000000e+00
1.000000000000000056e-01 1.378000000000000000e+03 4.591273000000000160e+00
1.000000000000000056e-01 1.376878905999999915e+03 2.295231999999999939e+00
1.000000000000000056e-01 1.375759765999999900e+03 2.294827000000000172e+00
1.000000000000000056e-01 1.374640625000000000e+03 0.000000000000000000e+00
1.000000000000000056e-01 1.373519530999999915e+03 0.000000000000000000e+00
1.000000000000000056e-01 1.372398437999999942e+03 2.293610999999999844e+00
1.000000000000000056e-01 1.371277344000000085e+03 4.586411000000000016e+00
1.000000000000000056e-01 1.370158202999999958e+03 2.292800000000000171e+00
1.000000000000000056e-01 1.369037109000000100e+03 6.877183999999999742e+00
1.000000000000000056e-01 1.367914062999999942e+03 0.000000000000000000e+00
1.000000000000000056e-01 1.366792969000000085e+03 2.291583000000000148e+00
1.000000000000000056e-01 1.365671875000000000e+03 6.873531999999999975e+00
1.000000000000000056e-01 1.364550780999999915e+03 4.581542999999999921e+00
1.000000000000000056e-01 1.363427734000000100e+03 6.871096999999999788e+00
1.000000000000000056e-01 1.362304687999999942e+03 0.000000000000000000e+00
1.000000000000000056e-01 1.361183594000000085e+03 2.289553000000000171e+00
1.000000000000000056e-01 1.360060547000000042e+03 6.867441000000000351e+00
1.000000000000000056e-01 1.358937500000000000e+03 6.866221999999999603e+00
1.000000000000000056e-01 1.357814452999999958e+03 2.288333999999999868e+00
1.000000000000000056e-01 1.356691405999999915e+03 0.000000000000000000e+00
1.000000000000000056e-01 1.355568359000000100e+03 2.287520999999999916e+00
1.000000000000000056e-01 1.354443359000000100e+03 -2.287113999999999869e+00
1.000000000000000056e-01 1.353320312999999942e+03 2.286707999999999963e+00
1.000000000000000056e-01 1.352195312999999942e+03 4.572600999999999694e+00
1.000000000000000056e-01 1.351072265999999900e+03 0.000000000000000000e+00
1.000000000000000056e-01 1.349947265999999900e+03 2.285486999999999824e+00
1.000000000000000056e-01 1.348822265999999900e+03 6.855239000000000082e+00
1.000000000000000056e-01 1.347697265999999900e+03 2.284672000000000036e+00
1.000000000000000056e-01 1.346572265999999900e+03 2.284264999999999990e+00
1.000000000000000056e-01 1.345447265999999900e+03 0.000000000000000000e+00
1.000000000000000056e-01 1.344322265999999900e+03 -2.283450999999999897e+00
1.000000000000000056e-01 1.343195312999999942e+03 0.000000000000000000e+00
1.000000000000000056e-01 1.342070312999999942e+03 4.565271000000000079e+00
1.000000000000000056e-01 1.340943359000000100e+03 4.564455999999999847e+00
1.000000000000000056e-01 1.339818359000000100e+03 4.563640000000000363e+00
1.000000000000000056e-01 1.338691405999999915e+03 0.000000000000000000e+00
1.000000000000000056e-01 1.337564452999999958e+03 2.281003999999999809e+00
1.000000000000000056e-01 1.336437500000000000e+03 4.561193000000000275e+00
1.000000000000000056e-01 1.335310547000000042e+03 2.280189000000000021e+00
1.000000000000000056e-01 1.334183594000000085e+03 6.839341000000000115e+00
1.000000000000000056e-01 1.333056640999999900e+03 4.558743999999999907e+00
1.000000000000000056e-01 1.331927734000000100e+03 4.557928000000000424e+00
1.000000000000000056e-01 1.330800780999999915e+03 9.114223000000000852e+00
1.000000000000000056e-01 1.329671875000000000e+03 6.834442000000000128e+00
1.000000000000000056e-01 1.328542969000000085e+03 0.000000000000000000e+00
1.000000000000000056e-01 1.327416015999999900e+03 6.831991000000000369e+00
1.000000000000000056e-01 1.326287109000000100e+03 4.553842999999999641e+00
1.000000000000000056e-01 1.325158202999999958e+03 2.276513000000000009e+00
1.000000000000000056e-01 1.324029297000000042e+03 6.828312000000000381e+00
1.000000000000000056e-01 1.322898437999999942e+03 0.000000000000000000e+00
1.000000000000000056e-01 1.321769530999999915e+03 2.275285999999999920e+00
1.000000000000000056e-01 1.320640625000000000e+03 6.824633000000000393e+00
1.000000000000000056e-01 1.319509765999999900e+03 6.823405000000000165e+00
1.000000000000000056e-01 1.318378905999999915e+03 2.274058999999999831e+00
1.000000000000000056e-01 1.317250000000000000e+03 2.273649999999999949e+00
1.000000000000000056e-01 1.316119140999999900e+03 2.273241000000000067e+00
1.000000000000000056e-01 1.314988280999999915e+03 -2.272832000000000185e+00
1.000000000000000056e-01 1.313857422000000042e+03 4.544844999999999580e+00
1.000000000000000056e-01 1.312726562999999942e+03 4.544025000000000425e+00
1.000000000000000056e-01 1.311593750000000000e+03 4.543206999999999773e+00
1.000000000000000056e-01 1.310462890999999900e+03 -2.271193999999999935e+00
1.000000000000000056e-01 1.309332030999999915e+03 2.270783999999999914e+00
1.000000000000000056e-01 1.308199219000000085e+03 2.270373999999999892e+00
1.000000000000000056e-01 1.307066405999999915e+03 -4.539928999999999881e+00
1.000000000000000056e-01 1.305935547000000042e+03 2.269554999999999989e+00
1.000000000000000056e-01 1.304802734000000100e+03 4.538289999999999935e+00
1.000000000000000056e-01 1.303669922000000042e+03 0.000000000000000000e+00
1.000000000000000056e-01 1.302537109000000100e+03 4.536649999999999849e+00
1.000000000000000056e-01 1.301402344000000085e+03 4.535829999999999806e+00
1.000000000000000056e-01 1.300269530999999915e+03 0.000000000000000000e+00
1.000000000000000056e-01 1.299136719000000085e+03 4.534188999999999581e+00
1.000000000000000056e-01 1.298001952999999958e+03 0.000000000000000000e+00
1.000000000000000056e-01 1.296869140999999900e+03 2.266274000000000122e+00
1.000000000000000056e-01 1.295734375000000000e+03 2.265862999999999960e+00
1.000000000000000056e-01 1.294599609000000100e+03 2.265452999999999939e+00
1.000000000000000056e-01 1.293464844000000085e+03 0.000000000000000000e+00
1.000000000000000056e-01 1.292330077999999958e+03 4.529263000000000261e+00
1.000000000000000056e-01 1.291195312999999942e+03 2.264221000000000039e+00
1.000000000000000056e-01 1.290060547000000042e+03 4.527620999999999896e+00
1.000000000000000056e-01 1.288923827999999958e+03 0.000000000000000000e+00
1.000000000000000056e-01 1.287789062999999942e+03 2.262989000000000139e+00
1.000000000000000056e-01 1.286652344000000085e+03 2.262577999999999978e+00
1.000000000000000056e-01 1.285517577999999958e+03 2.262166999999999817e+00
1.000000000000000056e-01 1.284380859000000100e+03 2.261756000000000100e+00
1.000000000000000056e-01 1.283244140999999900e+03 -2.261344999999999938e+00
1.000000000000000056e-01 1.282107422000000042e+03 2.260934000000000221e+00
1.000000000000000056e-01 1.280970702999999958e+03 2.260523000000000060e+00
1.000000000000000056e-01 1.279833984000000100e+03 2.260111999999999899e+00
1.000000000000000056e-01 1.278695312999999942e+03 4.519401000000000224e+00
1.000000000000000056e-01 1.277558594000000085e+03 2.259288999999999881e+00
1.000000000000000056e-01 1.276419922000000042e+03 2.258878000000000164e+00
1.000000000000000056e-01 1.275283202999999958e+03 2.258465999999999863e+00
1.000000000000000056e-01 1.274144530999999915e+03 4.516110000000000291e+00
1.000000000000000056e-01 1.273005859000000100e+03 0.000000000000000000e+00
1.000000000000000056e-01 1.271867187999999942e+03 2.257232000000000127e+00
1.000000000000000056e-01 1.270728515999999900e+03 4.513639999999999652e+00
1.000000000000000056e-01 1.269589844000000085e+03 4.512817000000000078e+00
1.000000000000000056e-01 1.268451172000000042e+03 -4.511993000000000364e+00
1.000000000000000056e-01 1.267310547000000042e+03 2.255584999999999951e+00
1.000000000000000056e-01 1.266171875000000000e+03 2.255173000000000094e+00
1.000000000000000056e-01 1.265031250000000000e+03 4.509521999999999586e+00
1.000000000000000056e-01 1.263892577999999958e+03 -2.254348999999999936e+00
1.000000000000000056e-01 1.262751952999999958e+03 -4.507874000000000159e+00
1.000000000000000056e-01 1.261611327999999958e+03 6.760576000000000363e+00
1.000000000000000056e-01 1.260470702999999958e+03 2.253112999999999921e+00
1.000000000000000056e-01 1.259330077999999958e+03 0.000000000000000000e+00
1.000000000000000056e-01 1.258189452999999958e+03 2.252289000000000208e+00
1.000000000000000056e-01 1.257046875000000000e+03 0.000000000000000000e+00
1.000000000000000056e-01 1.255906250000000000e+03 4.502928999999999959e+00
1.000000000000000056e-01 1.254763672000000042e+03 0.000000000000000000e+00
1.000000000000000056e-01 1.253623047000000042e+03 0.000000000000000000e+00
1.000000000000000056e-01 1.252480469000000085e+03 2.250227000000000199e+00
1.000000000000000056e-01 1.251337890999999900e+03 1.124907499999999949e+01
1.000000000000000056e-01 1.250195312999999942e+03 4.498804999999999943e+00
1.000000000000000056e-01 1.249052734000000100e+03 0.000000000000000000e+00
1.000000000000000056e-01 1.247910155999999915e+03 4.497155000000000236e+00
1.000000000000000056e-01 1.246767577999999958e+03 0.000000000000000000e+00
1.000000000000000056e-01 1.245623047000000042e+03 2.247752000000000194e+00
1.000000000000000056e-01 1.244480469000000085e+03 6.742017999999999844e+00
1.000000000000000056e-01 1.243335937999999942e+03 0.000000000000000000e+00
1.000000000000000056e-01 1.242191405999999915e+03 6.739542000000000144e+00
1.000000000000000056e-01 1.241046875000000000e+03 -2.246100999999999903e+00
1.000000000000000056e-01 1.239904297000000042e+03 4.491375999999999813e+00
1.000000000000000056e-01 1.238757812999999942e+03 4.490550999999999959e+00
1.000000000000000056e-01 1.237613280999999915e+03 6.734587000000000323e+00
1.000000000000000056e-01 1.236468750000000000e+03 2.244448999999999916e+00
1.000000000000000056e-01 1.235324219000000085e+03 6.732109000000000343e+00
1.000000000000000056e-01 1.234177734000000100e+03 2.243622999999999923e+00
1.000000000000000056e-01 1.233033202999999958e+03 -6.729630000000000223e+00
1.000000000000000056e-01 1.231886719000000085e+03 6.728391000000000233e+00
1.000000000000000056e-01 1.230740234000000100e+03 -2.242383999999999933e+00
1.000000000000000056e-01 1.229593750000000000e+03 2.241970999999999936e+00
1.000000000000000056e-01 1.228447265999999900e+03 2.241556999999999800e+00
1.000000000000000056e-01 1.227300780999999915e+03 0.000000000000000000e+00
1.000000000000000056e-01 1.226154297000000042e+03 4.481461999999999612e+00
1.000000000000000056e-01 1.225005859000000100e+03 4.480635000000000367e+00
1.000000000000000056e-01 1.223859375000000000e+03 2.239904000000000117e+00
1.000000000000000056e-01 1.222710937999999942e+03 0.000000000000000000e+00
1.000000000000000056e-01 1.221564452999999958e+03 2.239076999999999984e+00
1.000000000000000056e-01 1.220416015999999900e+03 2.238662999999999847e+00
1.000000000000000056e-01 1.219267577999999958e+03 4.476499999999999702e+00
1.000000000000000056e-01 1.218119140999999900e+03 4.475672999999999568e+00
1.000000000000000056e-01 1.216970702999999958e+03 4.474846000000000323e+00
1.000000000000000056e-01 1.215822265999999900e+03 0.000000000000000000e+00
1.000000000000000056e-01 1.214673827999999958e+03 2.236594999999999889e+00
1.000000000000000056e-01 1.213523437999999942e+03 2.236181999999999892e+00
1.000000000000000056e-01 1.212375000000000000e+03 2.235768000000000200e+00
1.000000000000000056e-01 1.211224609000000100e+03 6.706063000000000329e+00
1.000000000000000056e-01 1.210074219000000085e+03 0.000000000000000000e+00
1.000000000000000056e-01 1.208923827999999958e+03 6.703579999999999650e+00
1.000000000000000056e-01 1.207773437999999942e+03 2.234112999999999793e+00
1.000000000000000056e-01 1.206623047000000042e+03 4.467398000000000202e+00
1.000000000000000056e-01 1.205472655999999915e+03 0.000000000000000000e+00
1.000000000000000056e-01 1.204322265999999900e+03 4.465741999999999656e+00
1.000000000000000056e-01 1.203169922000000042e+03 0.000000000000000000e+00
1.000000000000000056e-01 1.202019530999999915e+03 0.000000000000000000e+00
1.000000000000000056e-01 1.200867187999999942e+03 4.463257999999999726e+00
1.000000000000000056e-01 1.199714844000000085e+03 0.000000000000000000e+00
1.000000000000000056e-01 1.198564452999999958e+03 0.000000000000000000e+00
1.000000000000000056e-01 1.197412109000000100e+03 2.230386999999999897e+00
1.000000000000000056e-01 1.196259765999999900e+03 2.229973000000000205e+00
1.000000000000000056e-01 1.195105469000000085e+03 2.229557999999999929e+00
1.000000000000000056e-01 1.193953125000000000e+03 4.458287999999999585e+00
1.000000000000000056e-01 1.192800780999999915e+03 2.228730000000000100e+00
1.000000000000000056e-01 1.191646484000000100e+03 -2.228315999999999963e+00
1.000000000000000056e-01 1.190494140999999900e+03 6.683703999999999645e+00
1.000000000000000056e-01 1.189339844000000085e+03 4.454973999999999990e+00
1.000000000000000056e-01 1.188185547000000042e+03 2.227072999999999858e+00
1.000000000000000056e-01 1.187031250000000000e+03 0.000000000000000000e+00
1.000000000000000056e-01 1.185876952999999958e+03 2.226243999999999890e+00
1.000000000000000056e-01 1.184722655999999915e+03 6.677488999999999564e+00
1.000000000000000056e-01 1.183566405999999915e+03 2.225414999999999921e+00
1.000000000000000056e-01 1.182412109000000100e+03 2.225000999999999785e+00
1.000000000000000056e-01 1.181257812999999942e+03 4.449171999999999905e+00
1.000000000000000056e-01 1.180101562999999942e+03 -2.224171999999999816e+00
1.000000000000000056e-01 1.178945312999999942e+03 2.223756999999999984e+00
1.000000000000000056e-01 1.177789062999999942e+03 0.000000000000000000e+00
1.000000000000000056e-01 1.176634765999999900e+03 2.222928000000000015e+00
1.000000000000000056e-01 1.175476562999999942e+03 -2.222513000000000183e+00
1.000000000000000056e-01 1.174320312999999942e+03 0.000000000000000000e+00
1.000000000000000056e-01 1.173164062999999942e+03 2.221684000000000214e+00
1.000000000000000056e-01 1.172007812999999942e+03 0.000000000000000000e+00
1.000000000000000056e-01 1.170849609000000100e+03 -2.220854999999999801e+00
1.000000000000000056e-01 1.169693359000000100e+03 4.440881000000000078e+00
1.000000000000000056e-01 1.168535155999999915e+03 2.220025999999999833e+00
1.000000000000000056e-01 1.167376952999999958e+03 2.219611000000000001e+00
1.000000000000000056e-01 1.166218750000000000e+03 0.000000000000000000e+00
1.000000000000000056e-01 1.165060547000000042e+03 0.000000000000000000e+00
1.000000000000000056e-01 1.163902344000000085e+03 4.436733000000000260e+00
1.000000000000000056e-01 1.162744140999999900e+03 2.217951999999999924e+00
1.000000000000000056e-01 1.161583984000000100e+03 0.000000000000000000e+00
1.000000000000000056e-01 1.160425780999999915e+03 4.434244999999999770e+00
1.000000000000000056e-01 1.159265625000000000e+03 2.216706999999999983e+00
1.000000000000000056e-01 1.158105469000000085e+03 0.000000000000000000e+00
1.000000000000000056e-01 1.156947265999999900e+03 2.215878000000000014e+00
1.000000000000000056e-01 1.155787109000000100e+03 2.215463000000000182e+00
1.000000000000000056e-01 1.154626952999999958e+03 2.215047999999999906e+00
1.000000000000000056e-01 1.153464844000000085e+03 0.000000000000000000e+00
1.000000000000000056e-01 1.152304687999999942e+03 4.428435999999999595e+00
1.000000000000000056e-01 1.151144530999999915e+03 2.213802999999999965e+00
1.000000000000000056e-01 1.149982422000000042e+03 6.640164000000000399e+00
1.000000000000000056e-01 1.148822265999999900e+03 -2.212972999999999857e+00
1.000000000000000056e-01 1.147660155999999915e+03 2.212558000000000025e+00
1.000000000000000056e-01 1.146498047000000042e+03 0.000000000000000000e+00
1.000000000000000056e-01 1.145335937999999942e+03 4.423455999999999833e+00
1.000000000000000056e-01 1.144173827999999958e+03 2.211313000000000084e+00
1.000000000000000056e-01 1.143011719000000085e+03 2.210897999999999808e+00
1.000000000000000056e-01 1.141849609000000100e+03 2.210482999999999976e+00
1.000000000000000056e-01 1.140685547000000042e+03 4.420136000000000287e+00
1.000000000000000056e-01 1.139523437999999942e+03 2.209652999999999867e+00
1.000000000000000056e-01 1.138359375000000000e+03 2.209238000000000035e+00
1.000000000000000056e-01 1.137197265999999900e+03 2.208823000000000203e+00
1.000000000000000056e-01 1.136033202999999958e+03 4.416814999999999714e+00
1.000000000000000056e-01 1.134869140999999900e+03 0.000000000000000000e+00
1.000000000000000056e-01 1.133705077999999958e+03 6.622733000000000203e+00
1.000000000000000056e-01 1.132541015999999900e+03 0.000000000000000000e+00
1.000000000000000056e-01 1.131375000000000000e+03 4.413495000000000168e+00
1.000000000000000056e-01 1.130210937999999942e+03 4.412664000000000364e+00
1.000000000000000056e-01 1.129044922000000042e+03 6.617751000000000161e+00
1.000000000000000056e-01 1.127880859000000100e+03 0.000000000000000000e+00
1.000000000000000056e-01 1.126714844000000085e+03 2.205086999999999797e+00
1.000000000000000056e-01 1.125548827999999958e+03 2.204670999999999825e+00
1.000000000000000056e-01 1.124382812999999942e+03 0.000000000000000000e+00
1.000000000000000056e-01 1.123216797000000042e+03 6.611523000000000039e+00
1.000000000000000056e-01 1.122050780999999915e+03 2.203425999999999885e+00
1.000000000000000056e-01 1.120884765999999900e+03 0.000000000000000000e+00
1.000000000000000056e-01 1.119716797000000042e+03 4.405191000000000301e+00
1.000000000000000056e-01 1.118550780999999915e+03 -2.202179999999999804e+00
1.000000000000000056e-01 1.117382812999999942e+03 2.201764999999999972e+00
1.000000000000000056e-01 1.116214844000000085e+03 4.402700000000000280e+00
1.000000000000000056e-01 1.115048827999999958e+03 2.200934999999999864e+00
1.000000000000000056e-01 1.113880859000000100e+03 0.000000000000000000e+00
1.000000000000000056e-01 1.112710937999999942e+03 6.600312999999999874e+00
1.000000000000000056e-01 1.111542969000000085e+03 4.399377999999999567e+00
1.000000000000000056e-01 1.110375000000000000e+03 0.000000000000000000e+00
1.000000000000000056e-01 1.109207030999999915e+03 4.397717000000000098e+00
1.000000000000000056e-01 1.108037109000000100e+03 6.595329999999999693e+00
1.000000000000000056e-01 1.106867187999999942e+03 -2.198027999999999871e+00
1.000000000000000056e-01 1.105699219000000085e+03 2.197613000000000039e+00
1.000000000000000056e-01 1.104529297000000042e+03 0.000000000000000000e+00
1.000000000000000056e-01 1.103359375000000000e+03 2.196781999999999790e+00
1.000000000000000056e-01 1.102189452999999958e+03 2.196366999999999958e+00
1.000000000000000056e-01 1.101017577999999958e+03 0.000000000000000000e+00
1.000000000000000056e-01 1.099847655999999915e+03 2.195536999999999850e+00
1.000000000000000056e-01 1.098677734000000100e+03 1.097560700000000011e+01
1.000000000000000056e-01 1.097505859000000100e+03 8.778824999999999434e+00
1.000000000000000056e-01 1.096333984000000100e+03 8.777164000000000854e+00
1.000000000000000056e-01 1.095164062999999942e+03 0.000000000000000000e+00
1.000000000000000056e-01 1.093992187999999942e+03 -2.193459999999999965e+00
1.000000000000000056e-01 1.092820312999999942e+03 2.193045000000000133e+00
1.000000000000000056e-01 1.091648437999999942e+03 2.192629999999999857e+00
1.000000000000000056e-01 1.090474609000000100e+03 4.384428999999999910e+00
1.000000000000000056e-01 1.089302734000000100e+03 -2.191799000000000053e+00
1.000000000000000056e-01 1.088130859000000100e+03 6.574151999999999774e+00
1.000000000000000056e-01 1.086957030999999915e+03 2.190968999999999944e+00
1.000000000000000056e-01 1.085783202999999958e+03 0.000000000000000000e+00
1.000000000000000056e-01 1.084611327999999958e+03 4.380277000000000420e+00
1.000000000000000056e-01 1.083437500000000000e+03 2.189722999999999864e+00
1.000000000000000056e-01 1.082263672000000042e+03 -2.189308000000000032e+00
1.000000000000000056e-01 1.081087890999999900e+03 6.566678999999999711e+00
1.000000000000000056e-01 1.079914062999999942e+03 4.376954999999999707e+00
1.000000000000000056e-01 1.078740234000000100e+03 2.188061999999999951e+00
1.000000000000000056e-01 1.077564452999999958e+03 2.187647000000000119e+00
1.000000000000000056e-01 1.076390625000000000e+03 0.000000000000000000e+00
1.000000000000000056e-01 1.075214844000000085e+03 4.373632999999999882e+00
1.000000000000000056e-01 1.074039062999999942e+03 4.372803000000000218e+00
1.000000000000000056e-01 1.072863280999999915e+03 8.743945999999999330e+00
1.000000000000000056e-01 1.071687500000000000e+03 6.556714000000000375e+00
1.000000000000000056e-01 1.070511719000000085e+03 0.000000000000000000e+00
1.000000000000000056e-01 1.069335937999999942e+03 2.184740999999999822e+00
1.000000000000000056e-01 1.068158202999999958e+03 2.184325999999999990e+00
1.000000000000000056e-01 1.066982422000000042e+03 -2.183911000000000158e+00
1.000000000000000056e-01 1.065804687999999942e+03 4.366990999999999623e+00
1.000000000000000056e-01 1.064626952999999958e+03 2.183079999999999909e+00
1.000000000000000056e-01 1.063451172000000042e+03 2.182665000000000077e+00
1.000000000000000056e-01 1.062273437999999942e+03 0.000000000000000000e+00
1.000000000000000056e-01 1.061095702999999958e+03 4.363669999999999938e+00
1.000000000000000056e-01 1.059916015999999900e+03 2.181420000000000137e+00
1.000000000000000056e-01 1.058738280999999915e+03 2.181004999999999860e+00
1.000000000000000056e-01 1.057560547000000042e+03 4.361178999999999917e+00
1.000000000000000056e-01 1.056380859000000100e+03 -2.180175000000000196e+00
1.000000000000000056e-01 1.055201172000000042e+03 2.179759999999999920e+00
1.000000000000000056e-01 1.054023437999999942e+03 -2.179345000000000088e+00
1.000000000000000056e-01 1.052843750000000000e+03 -2.178929999999999811e+00
1.000000000000000056e-01 1.051664062999999942e+03 2.178513999999999839e+00
1.000000000000000056e-01 1.050484375000000000e+03 0.000000000000000000e+00
1.000000000000000056e-01 1.049302734000000100e+03 0.000000000000000000e+00
1.000000000000000056e-01 1.048123047000000042e+03 -2.177268999999999899e+00
1.000000000000000056e-01 1.046943359000000100e+03 4.353709000000000273e+00
1.000000000000000056e-01 1.045761719000000085e+03 0.000000000000000000e+00
1.000000000000000056e-01 1.044580077999999958e+03 0.000000000000000000e+00
1.000000000000000056e-01 1.043398437999999942e+03 6.526829000000000214e+00
1.000000000000000056e-01 1.042218750000000000e+03 2.175194999999999990e+00
1.000000000000000056e-01 1.041035155999999915e+03 0.000000000000000000e+00
1.000000000000000056e-01 1.039853515999999900e+03 6.523094999999999644e+00
1.000000000000000056e-01 1.038671875000000000e+03 2.173950000000000049e+00
1.000000000000000056e-01 1.037490234000000100e+03 6.520605999999999902e+00
1.000000000000000056e-01 1.036306640999999900e+03 6.519360999999999962e+00
1.000000000000000056e-01 1.035123047000000042e+03 -2.172705000000000108e+00
1.000000000000000056e-01 1.033941405999999915e+03 4.344580999999999804e+00
1.000000000000000056e-01 1.032757812999999942e+03 -2.171876000000000140e+00
1.000000000000000056e-01 1.031574219000000085e+03 2.171460999999999864e+00
1.000000000000000056e-01 1.030390625000000000e+03 4.342093000000000202e+00
1.000000000000000056e-01 1.029207030999999915e+03 0.000000000000000000e+00
1.000000000000000056e-01 1.028021484000000100e+03 -4.340432999999999986e+00
1.000000000000000056e-01 1.026837890999999900e+03 6.509406000000000247e+00
1.000000000000000056e-01 1.025652344000000085e+03 2.169386999999999954e+00
1.000000000000000056e-01 1.024468750000000000e+03 0.000000000000000000e+00
1.000000000000000056e-01 1.023283202999999958e+03 2.168557999999999986e+00
1.000000000000000056e-01 1.022097656000000029e+03 0.000000000000000000e+00
1.000000000000000056e-01 1.020912108999999987e+03 8.670913999999999788e+00
1.000000000000000056e-01 1.019726563000000056e+03 0.000000000000000000e+00
1.000000000000000056e-01 1.018541016000000013e+03 0.000000000000000000e+00
1.000000000000000056e-01 1.017353516000000013e+03 2.166485000000000216e+00
1.000000000000000056e-01 1.016167968999999971e+03 2.166069999999999940e+00
1.000000000000000056e-01 1.014980468999999971e+03 2.165655000000000108e+00
1.000000000000000056e-01 1.013792968999999971e+03 6.495722999999999914e+00
1.000000000000000056e-01 1.012607422000000042e+03 2.164826000000000139e+00
1.000000000000000056e-01 1.011419922000000042e+03 0.000000000000000000e+00
1.000000000000000056e-01 1.010232422000000042e+03 4.327994999999999592e+00
1.000000000000000056e-01 1.009042968999999971e+03 2.163583000000000034e+00
1.000000000000000056e-01 1.007855468999999971e+03 0.000000000000000000e+00
1.000000000000000056e-01 1.006667968999999971e+03 -4.325508000000000131e+00
1.000000000000000056e-01 1.005478516000000013e+03 4.324678999999999718e+00
1.000000000000000056e-01 1.004291016000000013e+03 4.323851000000000333e+00
1.000000000000000056e-01 1.003101563000000056e+03 2.161510999999999960e+00
1.000000000000000056e-01 1.001912108999999987e+03 0.000000000000000000e+00
1.000000000000000056e-01 1.000722656000000029e+03 2.160681999999999992e+00
1.000000000000000056e-01 9.995332029999999577e+02 2.160267999999999855e+00
1.000000000000000056e-01 9.983437500000000000e+02 2.159854000000000163e+00
1.000000000000000056e-01 9.971523439999999709e+02 0.000000000000000000e+00
1.000000000000000056e-01 9.959628910000000133e+02 2.159025000000000194e+00
1.000000000000000056e-01 9.947714839999999867e+02 0.000000000000000000e+00
1.000000000000000056e-01 9.935820310000000291e+02 0.000000000000000000e+00
1.000000000000000056e-01 9.923906250000000000e+02 4.315565000000000317e+00
1.000000000000000056e-01 9.911992189999999709e+02 4.314737000000000045e+00
1.000000000000000056e-01 9.900078130000000556e+02 6.470862999999999587e+00
1.000000000000000056e-01 9.888164060000000291e+02 2.156540000000000123e+00
1.000000000000000056e-01 9.876230470000000423e+02 0.000000000000000000e+00
1.000000000000000056e-01 9.864316410000000133e+02 0.000000000000000000e+00
1.000000000000000056e-01 9.852382810000000291e+02 -2.155298000000000158e+00
1.000000000000000056e-01 9.840468750000000000e+02 4.309768000000000043e+00
1.000000000000000056e-01 9.828535160000000133e+02 2.154469999999999885e+00
1.000000000000000056e-01 9.816601560000000291e+02 4.308112000000000386e+00
1.000000000000000056e-01 9.804667970000000423e+02 0.000000000000000000e+00
1.000000000000000056e-01 9.792734380000000556e+02 -4.306456999999999979e+00
1.000000000000000056e-01 9.780800779999999577e+02 8.611257999999999413e+00
1.000000000000000056e-01 9.768867189999999709e+02 2.152400999999999787e+00
1.000000000000000056e-01 9.756914060000000291e+02 2.151987000000000094e+00
1.000000000000000056e-01 9.744980470000000423e+02 -2.151572999999999958e+00
1.000000000000000056e-01 9.733027339999999867e+02 4.302318999999999782e+00
1.000000000000000056e-01 9.721074220000000423e+02 2.150745000000000129e+00
1.000000000000000056e-01 9.709121089999999867e+02 6.450994999999999813e+00
1.000000000000000056e-01 9.697167970000000423e+02 2.149917999999999996e+00
1.000000000000000056e-01 9.685214839999999867e+02 2.149503999999999859e+00
1.000000000000000056e-01 9.673261720000000423e+02 0.000000000000000000e+00
1.000000000000000056e-01 9.661289060000000291e+02 0.000000000000000000e+00
1.000000000000000056e-01 9.649335939999999709e+02 2.148264000000000173e+00
1.000000000000000056e-01 9.637363279999999577e+02 -4.295700000000000074e+00
1.000000000000000056e-01 9.625390630000000556e+02 -6.442308999999999841e+00
1.000000000000000056e-01 9.613417970000000423e+02 6.441068999999999711e+00
1.000000000000000056e-01 9.601445310000000291e+02 4.293218999999999674e+00
1.000000000000000056e-01 9.589472660000000133e+02 2.146196000000000215e+00
1.000000000000000056e-01 9.577500000000000000e+02 2.145783000000000218e+00
1.000000000000000056e-01 9.565527339999999867e+02 4.290739000000000303e+00
1.000000000000000056e-01 9.553535160000000133e+02 0.000000000000000000e+00
1.000000000000000056e-01 9.541562500000000000e+02 2.144543000000000088e+00
1.000000000000000056e-01 9.529570310000000291e+02 6.432388000000000439e+00
1.000000000000000056e-01 9.517578130000000556e+02 0.000000000000000000e+00
1.000000000000000056e-01 9.505585939999999709e+02 0.000000000000000000e+00
1.000000000000000056e-01 9.493593750000000000e+02 2.142889999999999961e+00
1.000000000000000056e-01 9.481601560000000291e+02 0.000000000000000000e+00
1.000000000000000056e-01 9.469609380000000556e+02 2.142062999999999828e+00
1.000000000000000056e-01 9.457597660000000133e+02 -2.141649999999999832e+00
1.000000000000000056e-01 9.445605470000000423e+02 -2.141236999999999835e+00
1.000000000000000056e-01 9.433593750000000000e+02 2.140823999999999838e+00
1.000000000000000056e-01 9.421582029999999577e+02 4.280821999999999683e+00
1.000000000000000056e-01 9.409589839999999867e+02 4.279995999999999690e+00
1.000000000000000056e-01 9.397578130000000556e+02 4.279170999999999836e+00
1.000000000000000056e-01 9.385566410000000133e+02 2.139171999999999851e+00
1.000000000000000056e-01 9.373535160000000133e+02 0.000000000000000000e+00
1.000000000000000056e-01 9.361523439999999709e+02 2.138346999999999998e+00
1.000000000000000056e-01 9.349492189999999709e+02 2.137934000000000001e+00
1.000000000000000056e-01 9.337480470000000423e+02 2.137521000000000004e+00
1.000000000000000056e-01 9.325449220000000423e+02 8.548432999999999282e+00
1.000000000000000056e-01 9.313417970000000423e+02 0.000000000000000000e+00
1.000000000000000056e-01 9.301386720000000423e+02 2.136283000000000154e+00
1.000000000000000056e-01 9.289355470000000423e+02 4.271740000000000315e+00
1.000000000000000056e-01 9.277324220000000423e+02 -4.270914999999999573e+00
1.000000000000000056e-01 9.265292970000000423e+02 0.000000000000000000e+00
1.000000000000000056e-01 9.253242189999999709e+02 0.000000000000000000e+00
1.000000000000000056e-01 9.241210939999999709e+02 4.268440000000000012e+00
1.000000000000000056e-01 9.229160160000000133e+02 6.401423000000000307e+00
1.000000000000000056e-01 9.217109380000000556e+02 0.000000000000000000e+00
1.000000000000000056e-01 9.205058589999999867e+02 2.132982999999999851e+00
1.000000000000000056e-01 9.193007810000000291e+02 2.132569999999999855e+00
1.000000000000000056e-01 9.180957029999999577e+02 2.132157999999999998e+00
1.000000000000000056e-01 9.168906250000000000e+02 0.000000000000000000e+00
1.000000000000000056e-01 9.156855470000000423e+02 0.000000000000000000e+00
1.000000000000000056e-01 9.144785160000000133e+02 4.261841999999999686e+00
1.000000000000000056e-01 9.132734380000000556e+02 -2.130508999999999986e+00
1.000000000000000056e-01 9.120664060000000291e+02 -2.130097000000000129e+00
1.000000000000000056e-01 9.108593750000000000e+02 4.259369000000000405e+00
1.000000000000000056e-01 9.096523439999999709e+02 0.000000000000000000e+00
1.000000000000000056e-01 9.084453130000000556e+02 2.128859999999999975e+00
1.000000000000000056e-01 9.072382810000000291e+02 -2.128448000000000118e+00
1.000000000000000056e-01 9.060292970000000423e+02 0.000000000000000000e+00
1.000000000000000056e-01 9.048222660000000133e+02 4.255250000000000199e+00
1.000000000000000056e-01 9.036132810000000291e+02 4.254425999999999597e+00
1.000000000000000056e-01 9.024062500000000000e+02 0.000000000000000000e+00
1.000000000000000056e-01 9.011972660000000133e+02 4.252778000000000169e+00
1.000000000000000056e-01 8.999882810000000291e+02 8.503909000000000162e+00
1.000000000000000056e-01 8.987792970000000423e+02 4.251130999999999993e+00
1.000000000000000056e-01 8.975703130000000556e+02 2.125154000000000210e+00
1.000000000000000056e-01 8.963593750000000000e+02 0.000000000000000000e+00
1.000000000000000056e-01 8.951503910000000133e+02 2.124331000000000191e+00
1.000000000000000056e-01 8.939394529999999577e+02 0.000000000000000000e+00
1.000000000000000056e-01 8.927304689999999709e+02 4.247015000000000207e+00
1.000000000000000056e-01 8.915195310000000291e+02 4.246191999999999744e+00
1.000000000000000056e-01 8.903085939999999709e+02 6.368052999999999741e+00
1.000000000000000056e-01 8.890976560000000291e+02 6.366818999999999562e+00
1.000000000000000056e-01 8.878867189999999709e+02 2.121862000000000137e+00
1.000000000000000056e-01 8.866757810000000291e+02 4.242899999999999672e+00
1.000000000000000056e-01 8.854628910000000133e+02 4.242078000000000237e+00
1.000000000000000056e-01 8.842519529999999577e+02 8.482511000000000578e+00
1.000000000000000056e-01 8.830390630000000556e+02 2.120216000000000101e+00
1.000000000000000056e-01 8.818261720000000423e+02 0.000000000000000000e+00
1.000000000000000056e-01 8.806152339999999867e+02 6.358182000000000222e+00
1.000000000000000056e-01 8.794023439999999709e+02 4.237966000000000122e+00
1.000000000000000056e-01 8.781894529999999577e+02 -2.118571999999999900e+00
1.000000000000000056e-01 8.769746089999999867e+02 4.236322000000000365e+00
1.000000000000000056e-01 8.757617189999999709e+02 6.353250000000000064e+00
1.000000000000000056e-01 8.745488279999999577e+02 0.000000000000000000e+00
1.000000000000000056e-01 8.733339839999999867e+02 2.116928000000000143e+00
1.000000000000000056e-01 8.721191410000000133e+02 4.233035000000000103e+00
1.000000000000000056e-01 8.709042970000000423e+02 -2.116106999999999960e+00
1.000000000000000056e-01 8.696894529999999577e+02 -2.115695999999999799e+00
1.000000000000000056e-01 8.684746089999999867e+02 0.000000000000000000e+00
1.000000000000000056e-01 8.672597660000000133e+02 6.344623000000000346e+00
1.000000000000000056e-01 8.660449220000000423e+02 0.000000000000000000e+00
1.000000000000000056e-01 8.648281250000000000e+02 2.114053000000000182e+00
1.000000000000000056e-01 8.636132810000000291e+02 0.000000000000000000e+00
1.000000000000000056e-01 8.623964839999999867e+02 2.113231999999999999e+00
1.000000000000000056e-01 8.611796880000000556e+02 6.338464000000000098e+00
1.000000000000000056e-01 8.599648439999999709e+02 8.449643999999999266e+00
1.000000000000000056e-01 8.587480470000000423e+02 6.336001999999999690e+00
1.000000000000000056e-01 8.575292970000000423e+02 2.111590000000000078e+00
1.000000000000000056e-01 8.563125000000000000e+02 0.000000000000000000e+00
1.000000000000000056e-01 8.550957029999999577e+02 0.000000000000000000e+00
1.000000000000000056e-01 8.538769529999999577e+02 2.110358999999999874e+00
1.000000000000000056e-01 8.526601560000000291e+02 0.000000000000000000e+00
1.000000000000000056e-01 8.514414060000000291e+02 4.219078999999999802e+00
1.000000000000000056e-01 8.502226560000000291e+02 6.327386999999999873e+00
1.000000000000000056e-01 8.490039060000000291e+02 8.434875999999999152e+00
1.000000000000000056e-01 8.477851560000000291e+02 2.108309000000000211e+00
1.000000000000000056e-01 8.465664060000000291e+02 2.107899000000000189e+00
1.000000000000000056e-01 8.453457029999999577e+02 8.429956999999999923e+00
1.000000000000000056e-01 8.441269529999999577e+02 4.214159000000000432e+00
1.000000000000000056e-01 8.429062500000000000e+02 4.213339000000000389e+00
1.000000000000000056e-01 8.416855470000000423e+02 6.318779000000000146e+00
1.000000000000000056e-01 8.404667970000000423e+02 0.000000000000000000e+00
1.000000000000000056e-01 8.392460939999999709e+02 2.105440000000000200e+00
1.000000000000000056e-01 8.380234380000000556e+02 4.210061999999999749e+00
1.000000000000000056e-01 8.368027339999999867e+02 0.000000000000000000e+00
1.000000000000000056e-01 8.355820310000000291e+02 4.208423999999999943e+00
1.000000000000000056e-01 8.343593750000000000e+02 0.000000000000000000e+00
1.000000000000000056e-01 8.331386720000000423e+02 2.103393000000000068e+00
1.000000000000000056e-01 8.319160160000000133e+02 4.205967000000000233e+00
1.000000000000000056e-01 8.306933589999999867e+02 2.102574000000000165e+00
1.000000000000000056e-01 8.294707029999999577e+02 0.000000000000000000e+00
1.000000000000000056e-01 8.282480470000000423e+02 4.203510999999999775e+00
1.000000000000000056e-01 8.270253910000000133e+02 2.101345999999999936e+00
1.000000000000000056e-01 8.258027339999999867e+02 2.100937000000000054e+00
1.000000000000000056e-01 8.245781250000000000e+02 4.201056000000000346e+00
1.000000000000000056e-01 8.233554689999999709e+02 6.300356999999999985e+00
1.000000000000000056e-01 8.221308589999999867e+02 4.199419999999999931e+00
1.000000000000000056e-01 8.209062500000000000e+02 2.099301000000000084e+00
1.000000000000000056e-01 8.196816410000000133e+02 4.197784000000000404e+00
1.000000000000000056e-01 8.184570310000000291e+02 -4.196965999999999752e+00
1.000000000000000056e-01 8.172324220000000423e+02 4.196149000000000129e+00
1.000000000000000056e-01 8.160078130000000556e+02 6.292996999999999730e+00
1.000000000000000056e-01 8.147832029999999577e+02 2.097256999999999927e+00
1.000000000000000056e-01 8.135566410000000133e+02 -2.096848000000000045e+00
1.000000000000000056e-01 8.123300779999999577e+02 -2.096439999999999859e+00
1.000000000000000056e-01 8.111054689999999709e+02 2.096030999999999977e+00
1.000000000000000056e-01 8.098789060000000291e+02 4.191245000000000331e+00
1.000000000000000056e-01 8.086523439999999709e+02 4.190427999999999820e+00
1.000000000000000056e-01 8.074257810000000291e+02 4.189611000000000196e+00
1.000000000000000056e-01 8.061972660000000133e+02 2.094396999999999842e+00
1.000000000000000056e-01 8.049707029999999577e+02 0.000000000000000000e+00
1.000000000000000056e-01 8.037421880000000556e+02 6.280742000000000047e+00
1.000000000000000056e-01 8.025156250000000000e+02 0.000000000000000000e+00
1.000000000000000056e-01 8.012871089999999867e+02 2.092763999999999847e+00
1.000000000000000056e-01 8.000585939999999709e+02 2.092356000000000105e+00
1.000000000000000056e-01 7.988300779999999577e+02 6.275844000000000200e+00
1.000000000000000056e-01 7.976015630000000556e+02 8.366158999999999679e+00
1.000000000000000056e-01 7.963730470000000423e+02 -2.091131999999999991e+00
1.000000000000000056e-01 7.951425779999999577e+02 6.272171000000000163e+00
1.000000000000000056e-01 7.939140630000000556e+02 0.000000000000000000e+00
1.000000000000000056e-01 7.926835939999999709e+02 2.089907999999999877e+00
1.000000000000000056e-01 7.914550779999999577e+02 0.000000000000000000e+00
1.000000000000000056e-01 7.902246089999999867e+02 0.000000000000000000e+00
1.000000000000000056e-01 7.889941410000000133e+02 4.177369999999999806e+00
1.000000000000000056e-01 7.877636720000000423e+02 2.088277000000000161e+00
1.000000000000000056e-01 7.865312500000000000e+02 0.000000000000000000e+00
1.000000000000000056e-01 7.853007810000000291e+02 0.000000000000000000e+00
1.000000000000000056e-01 7.840683589999999867e+02 4.174108999999999625e+00
1.000000000000000056e-01 7.828378910000000133e+02 4.173295000000000421e+00
1.000000000000000056e-01 7.816054689999999709e+02 2.086240000000000094e+00
1.000000000000000056e-01 7.803730470000000423e+02 0.000000000000000000e+00
1.000000000000000056e-01 7.791406250000000000e+02 6.256275999999999726e+00
1.000000000000000056e-01 7.779082029999999577e+02 6.255054000000000336e+00
1.000000000000000056e-01 7.766757810000000291e+02 4.169222000000000428e+00
1.000000000000000056e-01 7.754433589999999867e+02 0.000000000000000000e+00
1.000000000000000056e-01 7.742089839999999867e+02 0.000000000000000000e+00
1.000000000000000056e-01 7.729765630000000556e+02 4.166780000000000150e+00
1.000000000000000056e-01 7.717421880000000556e+02 0.000000000000000000e+00
1.000000000000000056e-01 7.705078130000000556e+02 6.247728000000000392e+00
1.000000000000000056e-01 7.692734380000000556e+02 2.082168999999999937e+00
1.000000000000000056e-01 7.680390630000000556e+02 0.000000000000000000e+00
1.000000000000000056e-01 7.668046880000000556e+02 6.244067000000000256e+00
1.000000000000000056e-01 7.655703130000000556e+02 4.161897999999999875e+00
1.000000000000000056e-01 7.643339839999999867e+02 2.080541999999999891e+00
1.000000000000000056e-01 7.630996089999999867e+02 2.080135999999999985e+00
1.000000000000000056e-01 7.618632810000000291e+02 6.239187000000000261e+00
1.000000000000000056e-01 7.606269529999999577e+02 4.158644999999999925e+00
1.000000000000000056e-01 7.593906250000000000e+02 4.157831999999999972e+00
1.000000000000000056e-01 7.581542970000000423e+02 6.235528999999999655e+00
1.000000000000000056e-01 7.569179689999999709e+02 6.234309999999999796e+00
1.000000000000000056e-01 7.556796880000000556e+02 8.310788000000000508e+00
1.000000000000000056e-01 7.544433589999999867e+02 4.154582000000000441e+00
1.000000000000000056e-01 7.532050779999999577e+02 -2.076884999999999870e+00
1.000000000000000056e-01 7.519687500000000000e+02 6.229435999999999751e+00
1.000000000000000056e-01 7.507304689999999709e+02 2.076073000000000057e+00
1.000000000000000056e-01 7.494921880000000556e+02 4.151333000000000162e+00
1.000000000000000056e-01 7.482539060000000291e+02 4.150521000000000349e+00
1.000000000000000056e-01 7.470156250000000000e+02 6.224563999999999986e+00
1.000000000000000056e-01 7.457753910000000133e+02 0.000000000000000000e+00
1.000000000000000056e-01 7.445371089999999867e+02 4.148086000000000162e+00
1.000000000000000056e-01 7.432988279999999577e+02 4.147274999999999601e+00
1.000000000000000056e-01 7.420585939999999709e+02 2.073231999999999964e+00
1.000000000000000056e-01 7.408183589999999867e+02 2.072826000000000057e+00
1.000000000000000056e-01 7.395781250000000000e+02 2.072420999999999847e+00
1.000000000000000056e-01 7.383378910000000133e+02 4.144029999999999880e+00
1.000000000000000056e-01 7.370976560000000291e+02 2.071609000000000034e+00
1.000000000000000056e-01 7.358574220000000423e+02 -2.071203999999999823e+00
1.000000000000000056e-01 7.346152339999999867e+02 2.070799000000000056e+00
1.000000000000000056e-01 7.333750000000000000e+02 0.000000000000000000e+00
1.000000000000000056e-01 7.321328130000000556e+02 8.279953000000000785e+00
1.000000000000000056e-01 7.308906250000000000e+02 4.139166000000000345e+00
1.000000000000000056e-01 7.296484380000000556e+02 4.138355999999999923e+00
1.000000000000000056e-01 7.284062500000000000e+02 6.206318999999999697e+00
1.000000000000000056e-01 7.271640630000000556e+02 0.000000000000000000e+00
1.000000000000000056e-01 7.259218750000000000e+02 2.067963000000000218e+00
1.000000000000000056e-01 7.246777339999999867e+02 2.067558000000000007e+00
1.000000000000000056e-01 7.234355470000000423e+02 2.067152999999999796e+00
1.000000000000000056e-01 7.221914060000000291e+02 2.066748000000000030e+00
1.000000000000000056e-01 7.209472660000000133e+02 2.066343999999999959e+00
1.000000000000000056e-01 7.197031250000000000e+02 6.197816999999999688e+00
1.000000000000000056e-01 7.184589839999999867e+02 -2.065533999999999981e+00
1.000000000000000056e-01 7.172148439999999709e+02 2.065129999999999910e+00
1.000000000000000056e-01 7.159707029999999577e+02 6.194175999999999682e+00
1.000000000000000056e-01 7.147246089999999867e+02 4.128642000000000145e+00
1.000000000000000056e-01 7.134804689999999709e+02 2.063915999999999862e+00
1.000000000000000056e-01 7.122343750000000000e+02 0.000000000000000000e+00
1.000000000000000056e-01 7.109882810000000291e+02 6.189322999999999908e+00
1.000000000000000056e-01 7.097421880000000556e+02 6.188109999999999999e+00
1.000000000000000056e-01 7.084960939999999709e+02 2.062298999999999882e+00
1.000000000000000056e-01 7.072500000000000000e+02 -2.061894999999999811e+00
1.000000000000000056e-01 7.060039060000000291e+02 4.122982999999999620e+00
1.000000000000000056e-01 7.047578130000000556e+02 2.061087000000000113e+00
1.000000000000000056e-01 7.035097660000000133e+02 2.060683000000000042e+00
1.000000000000000056e-01 7.022617189999999709e+02 2.060278999999999971e+00
1.000000000000000056e-01 7.010136720000000423e+02 0.000000000000000000e+00
1.000000000000000056e-01 6.997675779999999577e+02 4.118943999999999939e+00
1.000000000000000056e-01 6.985195310000000291e+02 4.118135999999999797e+00
1.000000000000000056e-01 6.972695310000000291e+02 0.000000000000000000e+00
1.000000000000000056e-01 6.960214839999999867e+02 0.000000000000000000e+00
1.000000000000000056e-01 6.947734380000000556e+02 2.057856999999999825e+00
1.000000000000000056e-01 6.935234380000000556e+02 8.229815000000000325e+00
1.000000000000000056e-01 6.922734380000000556e+02 4.114099999999999646e+00
1.000000000000000056e-01 6.910253910000000133e+02 4.113293999999999784e+00
1.000000000000000056e-01 6.897753910000000133e+02 4.112486999999999782e+00
1.000000000000000056e-01 6.885253910000000133e+02 -2.055839999999999890e+00
1.000000000000000056e-01 6.872734380000000556e+02 2.055436999999999959e+00
1.000000000000000056e-01 6.860234380000000556e+02 4.110068000000000055e+00
1.000000000000000056e-01 6.847734380000000556e+02 2.054631000000000096e+00
1.000000000000000056e-01 6.835214839999999867e+02 6.162683000000000355e+00
1.000000000000000056e-01 6.822714839999999867e+02 2.053824999999999790e+00
1.000000000000000056e-01 6.810195310000000291e+02 0.000000000000000000e+00
1.000000000000000056e-01 6.797675779999999577e+02 2.053018999999999927e+00
1.000000000000000056e-01 6.785156250000000000e+02 0.000000000000000000e+00
1.000000000000000056e-01 6.772636720000000423e+02 0.000000000000000000e+00
1.000000000000000056e-01 6.760097660000000133e+02 4.103621999999999659e+00
1.000000000000000056e-01 6.747578130000000556e+02 2.051407999999999898e+00
1.000000000000000056e-01 6.735039060000000291e+02 2.051006000000000107e+00
1.000000000000000056e-01 6.722519529999999577e+02 0.000000000000000000e+00
1.000000000000000056e-01 6.709980470000000423e+02 6.150602000000000125e+00
1.000000000000000056e-01 6.697441410000000133e+02 2.049798000000000009e+00
1.000000000000000056e-01 6.684902339999999867e+02 2.049396000000000218e+00
1.000000000000000056e-01 6.672363279999999577e+02 2.048993999999999982e+00
1.000000000000000056e-01 6.659804689999999709e+02 0.000000000000000000e+00
1.000000000000000056e-01 6.647265630000000556e+02 4.096378999999999770e+00
1.000000000000000056e-01 6.634707029999999577e+02 0.000000000000000000e+00
1.000000000000000056e-01 6.622167970000000423e+02 0.000000000000000000e+00
1.000000000000000056e-01 6.609609380000000556e+02 2.046982999999999997e+00
1.000000000000000056e-01 6.597050779999999577e+02 0.000000000000000000e+00
1.000000000000000056e-01 6.584492189999999709e+02 2.046180000000000110e+00
1.000000000000000056e-01 6.571933589999999867e+02 4.091555999999999749e+00
1.000000000000000056e-01 6.559355470000000423e+02 2.045376000000000083e+00
1.000000000000000056e-01 6.546796880000000556e+02 4.089948999999999835e+00
1.000000000000000056e-01 6.534218750000000000e+02 4.089145000000000252e+00
1.000000000000000056e-01 6.521640630000000556e+02 0.000000000000000000e+00
1.000000000000000056e-01 6.509082029999999577e+02 4.087538999999999589e+00
1.000000000000000056e-01 6.496503910000000133e+02 2.043368000000000073e+00
1.000000000000000056e-01 6.483925779999999577e+02 4.085933999999999955e+00
1.000000000000000056e-01 6.471328130000000556e+02 2.042565000000000186e+00
1.000000000000000056e-01 6.458750000000000000e+02 2.042164000000000090e+00
1.000000000000000056e-01 6.446171880000000556e+02 0.000000000000000000e+00
1.000000000000000056e-01 6.433574220000000423e+02 2.041361999999999899e+00
1.000000000000000056e-01 6.420976560000000291e+02 8.163842999999999961e+00
1.000000000000000056e-01 6.408378910000000133e+02 0.000000000000000000e+00
1.000000000000000056e-01 6.395781250000000000e+02 2.040159000000000056e+00
1.000000000000000056e-01 6.383183589999999867e+02 2.039757999999999960e+00
1.000000000000000056e-01 6.370585939999999709e+02 2.039356999999999864e+00
1.000000000000000056e-01 6.357988279999999577e+02 2.038956000000000213e+00
1.000000000000000056e-01 6.345371089999999867e+02 -2.038555000000000117e+00
1.000000000000000056e-01 6.332773439999999709e+02 4.076309000000000182e+00
1.000000000000000056e-01 6.320156250000000000e+02 6.113261999999999752e+00
1.000000000000000056e-01 6.307539060000000291e+02 -4.074707000000000079e+00
1.000000000000000056e-01 6.294921880000000556e+02 2.036953000000000014e+00
1.000000000000000056e-01 6.282304689999999709e+02 0.000000000000000000e+00
1.000000000000000056e-01 6.269687500000000000e+02 6.108456999999999582e+00
1.000000000000000056e-01 6.257050779999999577e+02 0.000000000000000000e+00
1.000000000000000056e-01 6.244433589999999867e+02 6.106054999999999566e+00
1.000000000000000056e-01 6.231796880000000556e+02 8.139806000000000097e+00
1.000000000000000056e-01 6.219179689999999709e+02 0.000000000000000000e+00
1.000000000000000056e-01 6.206542970000000423e+02 2.034151000000000042e+00
1.000000000000000056e-01 6.193906250000000000e+02 2.033751000000000086e+00
1.000000000000000056e-01 6.181269529999999577e+02 2.033351000000000131e+00
1.000000000000000056e-01 6.168613279999999577e+02 0.000000000000000000e+00
1.000000000000000056e-01 6.155976560000000291e+02 -6.097654000000000352e+00
1.000000000000000056e-01 6.143320310000000291e+02 0.000000000000000000e+00
1.000000000000000056e-01 6.130683589999999867e+02 4.063504000000000005e+00
1.000000000000000056e-01 6.118027339999999867e+02 6.094057000000000279e+00
1.000000000000000056e-01 6.105371089999999867e+02 2.030952999999999786e+00
1.000000000000000056e-01 6.092714839999999867e+02 2.030552999999999830e+00
1.000000000000000056e-01 6.080058589999999867e+02 4.060308000000000028e+00
1.000000000000000056e-01 6.067402339999999867e+02 2.029754000000000058e+00
1.000000000000000056e-01 6.054726560000000291e+02 4.058709999999999596e+00
1.000000000000000056e-01 6.042070310000000291e+02 4.057910999999999824e+00
1.000000000000000056e-01 6.029394529999999577e+02 2.028556000000000026e+00
1.000000000000000056e-01 6.016718750000000000e+02 4.056314000000000419e+00
1.000000000000000056e-01 6.004042970000000423e+02 8.111031999999999798e+00
1.000000000000000056e-01 5.991367189999999709e+02 2.027359000000000133e+00
1.000000000000000056e-01 5.978691410000000133e+02 -2.026959999999999873e+00
1.000000000000000056e-01 5.966015630000000556e+02 2.026561000000000057e+00
1.000000000000000056e-01 5.953320310000000291e+02 2.026161999999999797e+00
1.000000000000000056e-01 5.940644529999999577e+02 6.077289999999999637e+00
1.000000000000000056e-01 5.927949220000000423e+02 4.050728999999999580e+00
1.000000000000000056e-01 5.915253910000000133e+02 4.049932000000000087e+00
1.000000000000000056e-01 5.902558589999999867e+02 6.073701999999999934e+00
1.000000000000000056e-01 5.889863279999999577e+02 6.072505999999999737e+00
1.000000000000000056e-01 5.877167970000000423e+02 2.023769999999999847e+00
1.000000000000000056e-01 5.864472660000000133e+02 2.023372000000000170e+00
1.000000000000000056e-01 5.851757810000000291e+02 2.022972999999999910e+00
1.000000000000000056e-01 5.839062500000000000e+02 0.000000000000000000e+00
1.000000000000000056e-01 5.826347660000000133e+02 6.066530000000000200e+00
1.000000000000000056e-01 5.813632810000000291e+02 -2.021778999999999993e+00
1.000000000000000056e-01 5.800917970000000423e+02 6.064141000000000226e+00
1.000000000000000056e-01 5.788203130000000556e+02 2.020982000000000056e+00
1.000000000000000056e-01 5.775488279999999577e+02 6.061753000000000391e+00
1.000000000000000056e-01 5.762773439999999709e+02 0.000000000000000000e+00
1.000000000000000056e-01 5.750039060000000291e+02 6.059364999999999668e+00
1.000000000000000056e-01 5.737324220000000423e+02 2.019391000000000158e+00
1.000000000000000056e-01 5.724589839999999867e+02 6.056977999999999973e+00
1.000000000000000056e-01 5.711855470000000423e+02 4.037189999999999834e+00
1.000000000000000056e-01 5.699121089999999867e+02 2.018196999999999797e+00
1.000000000000000056e-01 5.686386720000000423e+02 0.000000000000000000e+00
1.000000000000000056e-01 5.673652339999999867e+02 4.034804000000000279e+00
1.000000000000000056e-01 5.660898439999999709e+02 8.068018999999999608e+00
1.000000000000000056e-01 5.648164060000000291e+02 4.033215000000000217e+00
1.000000000000000056e-01 5.635410160000000133e+02 0.000000000000000000e+00
1.000000000000000056e-01 5.622656250000000000e+02 2.015813000000000077e+00
1.000000000000000056e-01 5.609921880000000556e+02 6.046246000000000009e+00
1.000000000000000056e-01 5.597167970000000423e+02 2.015017999999999976e+00
1.000000000000000056e-01 5.584394529999999577e+02 6.043862999999999985e+00
1.000000000000000056e-01 5.571640630000000556e+02 0.000000000000000000e+00
1.000000000000000056e-01 5.558886720000000423e+02 4.027654000000000067e+00
1.000000000000000056e-01 5.546113279999999577e+02 4.026860000000000106e+00
1.000000000000000056e-01 5.533359380000000556e+02 1.006516599999999961e+01
1.000000000000000056e-01 5.520585939999999709e+02 8.050544999999999618e+00
1.000000000000000056e-01 5.507812500000000000e+02 2.012239000000000111e+00
1.000000000000000056e-01 5.495039060000000291e+02 -4.023685000000000400e+00
1.000000000000000056e-01 5.482265630000000556e+02 4.022891999999999690e+00
1.000000000000000056e-01 5.469472660000000133e+02 8.044197999999999737e+00
1.000000000000000056e-01 5.456699220000000423e+02 2.010653000000000024e+00
1.000000000000000056e-01 5.443906250000000000e+02 4.020513000000000225e+00
1.000000000000000056e-01 5.431132810000000291e+02 2.009860000000000202e+00
1.000000000000000056e-01 5.418339839999999867e+02 2.009463999999999917e+00
1.000000000000000056e-01 5.405546880000000556e+02 2.009068000000000076e+00
1.000000000000000056e-01 5.392753910000000133e+02 4.017343000000000330e+00
1.000000000000000056e-01 5.379960939999999709e+02 2.008274999999999810e+00
1.000000000000000056e-01 5.367148439999999709e+02 6.023636999999999908e+00
1.000000000000000056e-01 5.354355470000000423e+02 0.000000000000000000e+00
1.000000000000000056e-01 5.341542970000000423e+02 0.000000000000000000e+00
1.000000000000000056e-01 5.328730470000000423e+02 8.026764999999999262e+00
1.000000000000000056e-01 5.315937500000000000e+02 6.018886000000000180e+00
1.000000000000000056e-01 5.303125000000000000e+02 0.000000000000000000e+00
1.000000000000000056e-01 5.290292970000000423e+02 2.005504000000000175e+00
1.000000000000000056e-01 5.277480470000000423e+02 4.010215999999999781e+00
1.000000000000000056e-01 5.264667970000000423e+02 2.004712000000000049e+00
1.000000000000000056e-01 5.251835939999999709e+02 -2.004316999999999904e+00
1.000000000000000056e-01 5.239023439999999709e+02 0.000000000000000000e+00
1.000000000000000056e-01 5.226191410000000133e+02 4.007051999999999836e+00
1.000000000000000056e-01 5.213359380000000556e+02 6.009390999999999927e+00
1.000000000000000056e-01 5.200527339999999867e+02 6.008205000000000240e+00
1.000000000000000056e-01 5.187695310000000291e+02 1.001169999999999938e+01
1.000000000000000056e-01 5.174863279999999577e+02 -4.003890000000000171e+00
1.000000000000000056e-01 5.162011720000000423e+02 0.000000000000000000e+00
1.000000000000000056e-01 5.149179689999999709e+02 2.001154000000000099e+00
1.000000000000000056e-01 5.136328130000000556e+02 8.003038000000000096e+00
1.000000000000000056e-01 5.123476560000000291e+02 4.000728999999999758e+00
1.000000000000000056e-01 5.110625000000000000e+02 -1.999970000000000026e+00
1.000000000000000056e-01 5.097773440000000278e+02 0.000000000000000000e+00
1.000000000000000056e-01 5.084921879999999987e+02 3.998359999999999914e+00
1.000000000000000056e-01 5.072070309999999722e+02 1.998785000000000034e+00
1.000000000000000056e-01 5.059199219999999855e+02 0.000000000000000000e+00
1.000000000000000056e-01 5.046347660000000133e+02 1.997996000000000105e+00
1.000000000000000056e-01 5.033476559999999722e+02 5.992804999999999715e+00
1.000000000000000056e-01 5.020605469999999855e+02 -3.994413999999999909e+00
1.000000000000000056e-01 5.007734379999999987e+02 1.996812999999999949e+00
1.000000000000000056e-01 4.994863280000000145e+02 1.996418000000000026e+00
1.000000000000000056e-01 4.981992190000000278e+02 1.996024000000000020e+00
1.000000000000000056e-01 4.969101559999999722e+02 1.995630000000000015e+00
1.000000000000000056e-01 4.956230469999999855e+02 5.985706000000000415e+00
1.000000000000000056e-01 4.943339839999999867e+02 3.989682999999999868e+00
1.000000000000000056e-01 4.930468750000000000e+02 1.994447000000000081e+00
1.000000000000000056e-01 4.917578129999999987e+02 1.994053000000000075e+00
1.000000000000000056e-01 4.904687500000000000e+02 3.987318999999999836e+00
1.000000000000000056e-01 4.891796879999999987e+02 3.986530999999999825e+00
1.000000000000000056e-01 4.878886719999999855e+02 1.992871999999999977e+00
1.000000000000000056e-01 4.865996089999999867e+02 -1.992477999999999971e+00
1.000000000000000056e-01 4.853085940000000278e+02 3.984167999999999932e+00
1.000000000000000056e-01 4.840195309999999722e+02 7.966762000000000121e+00
1.000000000000000056e-01 4.827285160000000133e+02 1.991297000000000095e+00
1.000000000000000056e-01 4.814375000000000000e+02 1.990903000000000089e+00
1.000000000000000056e-01 4.801464839999999867e+02 0.000000000000000000e+00
1.000000000000000056e-01 4.788554690000000278e+02 7.960466000000000264e+00
1.000000000000000056e-01 4.775625000000000000e+02 1.989722999999999908e+00
1.000000000000000056e-01 4.762714839999999867e+02 3.978660000000000085e+00
1.000000000000000056e-01 4.749785160000000133e+02 5.966809999999999725e+00
1.000000000000000056e-01 4.736875000000000000e+02 1.988542999999999950e+00
1.000000000000000056e-01 4.723945309999999722e+02 1.988150000000000084e+00
1.000000000000000056e-01 4.711015629999999987e+02 0.000000000000000000e+00
1.000000000000000056e-01 4.698085940000000278e+02 5.962093000000000309e+00
1.000000000000000056e-01 4.685136719999999855e+02 0.000000000000000000e+00
1.000000000000000056e-01 4.672207030000000145e+02 -1.986577999999999955e+00
1.000000000000000056e-01 4.659277339999999867e+02 5.958556999999999881e+00
1.000000000000000056e-01 4.646328129999999987e+02 1.985792999999999919e+00
1.000000000000000056e-01 4.633378910000000133e+02 0.000000000000000000e+00
1.000000000000000056e-01 4.620429690000000278e+02 5.955021999999999593e+00
1.000000000000000056e-01 4.607480469999999855e+02 0.000000000000000000e+00
1.000000000000000056e-01 4.594531250000000000e+02 3.968445000000000000e+00
1.000000000000000056e-01 4.581582030000000145e+02 3.967659999999999965e+00
1.000000000000000056e-01 4.568613280000000145e+02 0.000000000000000000e+00
1.000000000000000056e-01 4.555664059999999722e+02 5.949135000000000062e+00
1.000000000000000056e-01 4.542695309999999722e+02 1.982652999999999999e+00
1.000000000000000056e-01 4.529726559999999722e+02 -1.982261000000000051e+00
1.000000000000000056e-01 4.516757809999999722e+02 3.963737000000000066e+00
1.000000000000000056e-01 4.503789059999999722e+02 3.962952000000000030e+00
1.000000000000000056e-01 4.490820309999999722e+02 0.000000000000000000e+00
1.000000000000000056e-01 4.477851559999999722e+02 3.961383999999999794e+00
1.000000000000000056e-01 4.464863280000000145e+02 5.940901000000000209e+00
1.000000000000000056e-01 4.451894530000000145e+02 1.979908000000000001e+00
1.000000000000000056e-01 4.438906250000000000e+02 3.959032999999999802e+00
1.000000000000000056e-01 4.425917969999999855e+02 5.937374000000000152e+00
1.000000000000000056e-01 4.412929690000000278e+02 1.978733000000000075e+00
1.000000000000000056e-01 4.399941410000000133e+02 -3.956682999999999950e+00
1.000000000000000056e-01 4.386953129999999987e+02 3.955899000000000054e+00
1.000000000000000056e-01 4.373945309999999722e+02 5.932673999999999559e+00
1.000000000000000056e-01 4.360957030000000145e+02 3.954333000000000098e+00
1.000000000000000056e-01 4.347949219999999855e+02 5.930325999999999986e+00
1.000000000000000056e-01 4.334960940000000278e+02 3.952767999999999837e+00
1.000000000000000056e-01 4.321953129999999987e+02 3.951985000000000081e+00
1.000000000000000056e-01 4.308945309999999722e+02 3.951203000000000021e+00
1.000000000000000056e-01 4.295917969999999855e+02 7.900839999999999641e+00
1.000000000000000056e-01 4.282910160000000133e+02 0.000000000000000000e+00
1.000000000000000056e-01 4.269902339999999867e+02 5.923283999999999772e+00
1.000000000000000056e-01 4.256875000000000000e+02 5.922111000000000125e+00
1.000000000000000056e-01 4.243847660000000133e+02 0.000000000000000000e+00
1.000000000000000056e-01 4.230839839999999867e+02 5.919764999999999944e+00
1.000000000000000056e-01 4.217812500000000000e+02 5.918592000000000297e+00
1.000000000000000056e-01 4.204765629999999987e+02 5.917419999999999902e+00
1.000000000000000056e-01 4.191738280000000145e+02 5.916248000000000395e+00
1.000000000000000056e-01 4.178710940000000278e+02 9.858458999999999861e+00
1.000000000000000056e-01 4.165664059999999722e+02 7.885205000000000020e+00
1.000000000000000056e-01 4.152636719999999855e+02 5.912732000000000099e+00
1.000000000000000056e-01 4.139589839999999867e+02 1.970520000000000049e+00
1.000000000000000056e-01 4.126542969999999855e+02 5.910389000000000337e+00
1.000000000000000056e-01 4.113496089999999867e+02 5.909218000000000082e+00
1.000000000000000056e-01 4.100449219999999855e+02 0.000000000000000000e+00
1.000000000000000056e-01 4.087402339999999867e+02 7.875834000000000223e+00
1.000000000000000056e-01 4.074335940000000278e+02 1.968568000000000096e+00
1.000000000000000056e-01 4.061289059999999722e+02 1.968177999999999983e+00
1.000000000000000056e-01 4.048222660000000133e+02 5.903363999999999834e+00
1.000000000000000056e-01 4.035156250000000000e+02 0.000000000000000000e+00
1.000000000000000056e-01 4.022089839999999867e+02 0.000000000000000000e+00
1.000000000000000056e-01 4.009023440000000278e+02 1.966617999999999977e+00
1.000000000000000056e-01 3.995957030000000145e+02 0.000000000000000000e+00
1.000000000000000056e-01 3.982871089999999867e+02 5.897515000000000285e+00
1.000000000000000056e-01 3.969804690000000278e+02 5.896346000000000309e+00
1.000000000000000056e-01 3.956718750000000000e+02 3.930117999999999778e+00
1.000000000000000056e-01 3.943652339999999867e+02 9.823346000000000799e+00
1.000000000000000056e-01 3.930566410000000133e+02 0.000000000000000000e+00
1.000000000000000056e-01 3.917480469999999855e+02 3.927779999999999827e+00
1.000000000000000056e-01 3.904394530000000145e+02 0.000000000000000000e+00
1.000000000000000056e-01 3.891289059999999722e+02 7.852444000000000202e+00
1.000000000000000056e-01 3.878203129999999987e+02 9.813608000000000331e+00
1.000000000000000056e-01 3.865097660000000133e+02 5.886997000000000035e+00
1.000000000000000056e-01 3.852011719999999855e+02 3.923885999999999985e+00
1.000000000000000056e-01 3.838906250000000000e+02 3.923106999999999900e+00
1.000000000000000056e-01 3.825800780000000145e+02 3.922328999999999954e+00
1.000000000000000056e-01 3.812695309999999722e+02 0.000000000000000000e+00
1.000000000000000056e-01 3.799589839999999867e+02 1.960385999999999962e+00
1.000000000000000056e-01 3.786464839999999867e+02 7.839989000000000097e+00
1.000000000000000056e-01 3.773359379999999987e+02 0.000000000000000000e+00
1.000000000000000056e-01 3.760234379999999987e+02 3.918438999999999783e+00
1.000000000000000056e-01 3.747109379999999987e+02 5.876491999999999827e+00
1.000000000000000056e-01 3.734003910000000133e+02 0.000000000000000000e+00
1.000000000000000056e-01 3.720878910000000133e+02 1.958053000000000043e+00
1.000000000000000056e-01 3.707734379999999987e+02 1.957664000000000071e+00
1.000000000000000056e-01 3.694609379999999987e+02 0.000000000000000000e+00
1.000000000000000056e-01 3.681484379999999987e+02 1.956887000000000043e+00
1.000000000000000056e-01 3.668339839999999867e+02 0.000000000000000000e+00
1.000000000000000056e-01 3.655195309999999722e+02 3.912220000000000031e+00
1.000000000000000056e-01 3.642070309999999722e+02 1.955721999999999960e+00
1.000000000000000056e-01 3.628925780000000145e+02 0.000000000000000000e+00
1.000000000000000056e-01 3.615781250000000000e+02 7.819779999999999731e+00
1.000000000000000056e-01 3.602617190000000278e+02 5.863669999999999938e+00
1.000000000000000056e-01 3.589472660000000133e+02 1.954169000000000045e+00
1.000000000000000056e-01 3.576328129999999987e+02 1.953780000000000072e+00
1.000000000000000056e-01 3.563164059999999722e+02 3.906785000000000174e+00
1.000000000000000056e-01 3.550000000000000000e+02 9.765021000000000839e+00
1.000000000000000056e-01 3.536835940000000278e+02 3.905232999999999954e+00
1.000000000000000056e-01 3.523671879999999987e+02 7.808913000000000437e+00
1.000000000000000056e-01 3.510507809999999722e+02 3.903681000000000179e+00
1.000000000000000056e-01 3.497343750000000000e+02 5.854358000000000395e+00
1.000000000000000056e-01 3.484160160000000133e+02 9.755323999999999884e+00
1.000000000000000056e-01 3.470996089999999867e+02 3.901353999999999989e+00
1.000000000000000056e-01 3.457812500000000000e+02 5.850868000000000180e+00
1.000000000000000056e-01 3.444628910000000133e+02 1.949902000000000024e+00
1.000000000000000056e-01 3.431445309999999722e+02 0.000000000000000000e+00
1.000000000000000056e-01 3.418261719999999855e+02 3.898252999999999968e+00
1.000000000000000056e-01 3.405078129999999987e+02 9.743695999999999913e+00
1.000000000000000056e-01 3.391894530000000145e+02 5.845055999999999585e+00
1.000000000000000056e-01 3.378691410000000133e+02 5.843893999999999700e+00
1.000000000000000056e-01 3.365507809999999722e+02 7.790307999999999566e+00
1.000000000000000056e-01 3.352304690000000278e+02 5.841568999999999789e+00
1.000000000000000056e-01 3.339101559999999722e+02 3.893604999999999983e+00
1.000000000000000056e-01 3.325898440000000278e+02 0.000000000000000000e+00
1.000000000000000056e-01 3.312695309999999722e+02 3.892056999999999878e+00
1.000000000000000056e-01 3.299472660000000133e+02 1.945640999999999954e+00
1.000000000000000056e-01 3.286269530000000145e+02 -1.945254000000000039e+00
1.000000000000000056e-01 3.273046879999999987e+02 0.000000000000000000e+00
1.000000000000000056e-01 3.259843750000000000e+02 5.833441999999999794e+00
1.000000000000000056e-01 3.246621089999999867e+02 5.832281000000000049e+00
1.000000000000000056e-01 3.233398440000000278e+02 5.831120000000000303e+00
1.000000000000000056e-01 3.220175780000000145e+02 5.829959999999999809e+00
1.000000000000000056e-01 3.206953129999999987e+02 7.771734000000000364e+00
1.000000000000000056e-01 3.193710940000000278e+02 5.827640999999999849e+00
1.000000000000000056e-01 3.180488280000000145e+02 3.884320000000000217e+00
1.000000000000000056e-01 3.167246089999999867e+02 7.767095000000000304e+00
1.000000000000000056e-01 3.154003910000000133e+02 3.882773999999999948e+00
1.000000000000000056e-01 3.140761719999999855e+02 9.705004000000000630e+00
1.000000000000000056e-01 3.127519530000000145e+02 3.881228999999999818e+00
1.000000000000000056e-01 3.114277339999999867e+02 1.164136799999999994e+01
1.000000000000000056e-01 3.101035160000000133e+02 1.163904999999999923e+01
1.000000000000000056e-01 3.087773440000000278e+02 1.357618800000000014e+01
1.000000000000000056e-01 3.074531250000000000e+02 1.163441599999999987e+01
1.000000000000000056e-01 3.061269530000000145e+02 2.714156300000000144e+01
1.000000000000000056e-01 3.048007809999999722e+02 3.876593799999999845e+01
1.000000000000000056e-01 3.034746089999999867e+02 8.720599400000000401e+01
1.000000000000000056e-01 3.021484379999999987e+02 1.433768460000000005e+02
1.000000000000000056e-01 3.008222660000000133e+02 8.717125699999999711e+01
1.000000000000000056e-01 2.994941410000000133e+02 3.679830900000000327e+01
1.000000000000000056e-01 2.981679690000000278e+02 2.130003900000000172e+01
1.000000000000000056e-01 2.968398440000000278e+02 1.355186999999999919e+01
1.000000000000000056e-01 2.955117190000000278e+02 1.161357399999999984e+01
1.000000000000000056e-01 2.941835940000000278e+02 7.740840000000000387e+00
1.000000000000000056e-01 2.928554690000000278e+02 1.160894599999999954e+01
1.000000000000000056e-01 2.915273440000000278e+02 7.737754999999999939e+00
1.000000000000000056e-01 2.901992190000000278e+02 9.670265999999999806e+00
1.000000000000000056e-01 2.888691410000000133e+02 7.734670999999999630e+00
1.000000000000000056e-01 2.875410160000000133e+02 1.933281999999999945e+00
1.000000000000000056e-01 2.862109379999999987e+02 9.664483999999999853e+00
1.000000000000000056e-01 2.848808589999999867e+02 5.797533999999999743e+00
1.000000000000000056e-01 2.835507809999999722e+02 9.660629999999999384e+00
1.000000000000000056e-01 2.822207030000000145e+02 7.726962999999999582e+00
1.000000000000000056e-01 2.808886719999999855e+02 7.725422000000000011e+00
1.000000000000000056e-01 2.795585940000000278e+02 3.861940999999999846e+00
1.000000000000000056e-01 2.782265629999999987e+02 -1.930584999999999996e+00
1.000000000000000056e-01 2.768964839999999867e+02 3.860399999999999832e+00
1.000000000000000056e-01 2.755644530000000145e+02 0.000000000000000000e+00
1.000000000000000056e-01 2.742324219999999855e+02 1.929429999999999978e+00
1.000000000000000056e-01 2.729003910000000133e+02 5.787136000000000280e+00
1.000000000000000056e-01 2.715664059999999722e+02 5.785980999999999597e+00
1.000000000000000056e-01 2.702343750000000000e+02 3.856551000000000062e+00
1.000000000000000056e-01 2.689023440000000278e+02 3.855780999999999903e+00
1.000000000000000056e-01 2.675683589999999867e+02 1.927505999999999942e+00
1.000000000000000056e-01 2.662343750000000000e+02 3.854242999999999864e+00
1.000000000000000056e-01 2.649003910000000133e+02 1.926736999999999922e+00
1.000000000000000056e-01 2.635664059999999722e+02 3.852704000000000129e+00
1.000000000000000056e-01 2.622324219999999855e+02 7.703869000000000078e+00
1.000000000000000056e-01 2.608964839999999867e+02 5.776748999999999690e+00
1.000000000000000056e-01 2.595625000000000000e+02 1.925197999999999965e+00
1.000000000000000056e-01 2.582265629999999987e+02 0.000000000000000000e+00
1.000000000000000056e-01 2.568925780000000145e+02 9.622147999999999257e+00
1.000000000000000056e-01 2.555566410000000133e+02 3.848090000000000011e+00
1.000000000000000056e-01 2.542207029999999861e+02 0.000000000000000000e+00
1.000000000000000056e-01 2.528847660000000133e+02 9.616384000000000043e+00
1.000000000000000056e-01 2.515468750000000000e+02 3.845784999999999787e+00
1.000000000000000056e-01 2.502109379999999987e+02 1.922508000000000106e+00
1.000000000000000056e-01 2.488730470000000139e+02 3.844247999999999887e+00
1.000000000000000056e-01 2.475351560000000006e+02 0.000000000000000000e+00
1.000000000000000056e-01 2.461992189999999994e+02 3.842712000000000128e+00
1.000000000000000056e-01 2.448613279999999861e+02 3.841943999999999804e+00
1.000000000000000056e-01 2.435234379999999987e+02 5.761764999999999581e+00
1.000000000000000056e-01 2.421835939999999994e+02 1.920204000000000022e+00
1.000000000000000056e-01 2.408457029999999861e+02 1.919820000000000082e+00
1.000000000000000056e-01 2.395058589999999867e+02 5.758309999999999818e+00
1.000000000000000056e-01 2.381679689999999994e+02 5.757158999999999693e+00
1.000000000000000056e-01 2.368281250000000000e+02 1.918668999999999958e+00
1.000000000000000056e-01 2.354882810000000006e+02 1.918285000000000018e+00
1.000000000000000056e-01 2.341484379999999987e+02 1.917901999999999996e+00
1.000000000000000056e-01 2.328085939999999994e+02 3.835036999999999807e+00
1.000000000000000056e-01 2.314667970000000139e+02 1.917135000000000034e+00
1.000000000000000056e-01 2.301269529999999861e+02 1.916751000000000094e+00
1.000000000000000056e-01 2.287851560000000006e+02 3.832735000000000003e+00
1.000000000000000056e-01 2.274433589999999867e+02 3.831968999999999959e+00
1.000000000000000056e-01 2.261015629999999987e+02 7.662404000000000437e+00
1.000000000000000056e-01 2.247597660000000133e+02 3.830435000000000034e+00
1.000000000000000056e-01 2.234179689999999994e+02 9.574170999999999765e+00
1.000000000000000056e-01 2.220761720000000139e+02 1.914450999999999903e+00
1.000000000000000056e-01 2.207324220000000139e+02 5.742202999999999946e+00
1.000000000000000056e-01 2.193906250000000000e+02 3.827369000000000021e+00
1.000000000000000056e-01 2.180468750000000000e+02 3.826602999999999977e+00
1.000000000000000056e-01 2.167031250000000000e+02 1.912917999999999896e+00
1.000000000000000056e-01 2.153593750000000000e+02 5.737606000000000428e+00
1.000000000000000056e-01 2.140156250000000000e+02 5.736456999999999695e+00
1.000000000000000056e-01 2.126718750000000000e+02 0.000000000000000000e+00
1.000000000000000056e-01 2.113261720000000139e+02 1.911386000000000029e+00
1.000000000000000056e-01 2.099824220000000139e+02 3.822007000000000154e+00
1.000000000000000056e-01 2.086367189999999994e+02 1.910620999999999903e+00
1.000000000000000056e-01 2.072910160000000133e+02 0.000000000000000000e+00
1.000000000000000056e-01 2.059453129999999987e+02 5.729566000000000159e+00
1.000000000000000056e-01 2.045996089999999867e+02 1.909472999999999976e+00
1.000000000000000056e-01 2.032539060000000006e+02 1.909089999999999954e+00
1.000000000000000056e-01 2.019082029999999861e+02 5.726122000000000156e+00
1.000000000000000056e-01 2.005605470000000139e+02 0.000000000000000000e+00
1.000000000000000056e-01 1.992128910000000133e+02 0.000000000000000000e+00
1.000000000000000056e-01 1.978671879999999987e+02 7.630238000000000298e+00
1.000000000000000056e-01 1.965195310000000006e+02 1.907176999999999900e+00
1.000000000000000056e-01 1.951718750000000000e+02 3.813588999999999896e+00
1.000000000000000056e-01 1.938222660000000133e+02 5.719236999999999682e+00
1.000000000000000056e-01 1.924746089999999867e+02 3.812059999999999782e+00
1.000000000000000056e-01 1.911250000000000000e+02 3.811294999999999877e+00
1.000000000000000056e-01 1.897773439999999994e+02 7.621061000000000085e+00
1.000000000000000056e-01 1.884277339999999867e+02 5.714648999999999646e+00
1.000000000000000056e-01 1.870781250000000000e+02 3.809001999999999999e+00
1.000000000000000056e-01 1.857285160000000133e+02 7.616475000000000328e+00
1.000000000000000056e-01 1.843789060000000006e+02 5.711210000000000342e+00
1.000000000000000056e-01 1.830292970000000139e+02 0.000000000000000000e+00
1.000000000000000056e-01 1.816777339999999867e+02 1.902972000000000108e+00
1.000000000000000056e-01 1.803281250000000000e+02 0.000000000000000000e+00
1.000000000000000056e-01 1.789765629999999987e+02 0.000000000000000000e+00
1.000000000000000056e-01 1.776250000000000000e+02 7.607306000000000346e+00
1.000000000000000056e-01 1.762734379999999987e+02 1.901445000000000052e+00
1.000000000000000056e-01 1.749218750000000000e+02 0.000000000000000000e+00
1.000000000000000056e-01 1.735683589999999867e+02 1.900681000000000065e+00
1.000000000000000056e-01 1.722167970000000139e+02 3.800597999999999921e+00
1.000000000000000056e-01 1.708632810000000006e+02 5.699752000000000152e+00
1.000000000000000056e-01 1.695117189999999994e+02 1.899535999999999891e+00
1.000000000000000056e-01 1.681582029999999861e+02 1.899154000000000009e+00
1.000000000000000056e-01 1.668046879999999987e+02 5.696316999999999631e+00
1.000000000000000056e-01 1.654511720000000139e+02 7.593562999999999619e+00
1.000000000000000056e-01 1.640957029999999861e+02 7.592036000000000229e+00
1.000000000000000056e-01 1.627421879999999987e+02 7.590510000000000090e+00
1.000000000000000056e-01 1.613867189999999994e+02 -1.897245999999999988e+00
1.000000000000000056e-01 1.600332029999999861e+02 1.896865000000000023e+00
1.000000000000000056e-01 1.586777339999999867e+02 5.689448999999999756e+00
1.000000000000000056e-01 1.573222660000000133e+02 3.792203000000000213e+00
1.000000000000000056e-01 1.559667970000000139e+02 5.687160999999999689e+00
1.000000000000000056e-01 1.546113279999999861e+02 9.476694999999999425e+00
1.000000000000000056e-01 1.532539060000000006e+02 0.000000000000000000e+00
1.000000000000000056e-01 1.518984379999999987e+02 0.000000000000000000e+00
1.000000000000000056e-01 1.505410160000000133e+02 5.682585999999999693e+00
1.000000000000000056e-01 1.491835939999999994e+02 1.893814000000000108e+00
1.000000000000000056e-01 1.478261720000000139e+02 3.786865999999999843e+00
1.000000000000000056e-01 1.464687500000000000e+02 3.786103999999999914e+00
1.000000000000000056e-01 1.451113279999999861e+02 7.570682999999999829e+00
